Time (s)	γ (-)	γ_dot (1/s)	σ (Pa)
0.100335	0.200501737	1.994970665	6.21415
0.200334	0.399330662	1.980000168	7.36774
0.300332	0.596169362	1.955238324	8.32742
0.400334	0.790059955	1.920930877	9.01549
0.500333	0.980050747	1.877422865	9.63434
0.600335	1.165253929	1.825146413	10.0126
0.700334	1.344807109	1.764626976	10.3452
0.800332	1.517919358	1.696468509	10.472
0.900334	1.683868484	1.621348302	10.4372
1.00033	1.841979239	1.540024591	10.386
1.10034	1.991701531	1.453293085	10.327
1.20033	2.132488613	1.362050162	10.144
1.30033	2.263976408	1.26718084	10.0363
1.40033	2.385835765	1.169641935	9.68302
1.50033	2.497848276	1.070408024	9.4108
1.60034	2.599903617	0.970460624	9.1107
1.70033	2.691952238	0.870828263	8.81141
1.80033	2.774102601	0.772476548	8.41583
1.90033	2.846523351	0.676398172	8.01439
2.00033	2.909490049	0.583553118	7.5546
2.10034	2.963377669	0.494860433	7.13028
2.20033	3.008632154	0.411232111	6.66215
2.30033	3.0458153	0.333477932	6.1136
2.40033	3.075549804	0.262383422	5.54249
2.50033	3.098537734	0.198658932	4.93797
2.60034	3.11555	0.142936026	4.32004
2.70033	3.127411513	0.095786872	3.63376
2.80033	3.135007199	0.057667165	2.97778
2.90033	3.1392589	0.028962935	2.33911
3.00033	3.141123303	0.009960988	1.76279
3.10034	3.141580954	0.00085077	1.2804
3.20033	3.141626422	0.001724542	0.941977
3.30033	3.142258446	0.01257234	0.904616
3.40033	3.144469868	0.033286189	1.19581
3.50033	3.149237761	0.063659122	1.9283
3.60034	3.157514684	0.103392092	3.16877
3.70033	3.170214015	0.15207486	4.84898
3.80033	3.188211123	0.209234244	6.56084
3.90033	3.212324321	0.274294698	8.0284
4.00033	3.243311844	0.34660616	9.28912
4.10034	3.281867496	0.425454301	10.2111
4.20033	3.328592489	0.510026825	11.0622
4.30033	3.384031849	0.599503184	11.695
4.40033	3.448626558	0.692981175	12.3202
4.50033	3.522730373	0.789526797	12.8414
4.60034	3.606610922	0.888185334	13.2375
4.70033	3.700402709	0.987941312	13.6769
4.80033	3.80419432	1.087827713	14.0794
4.90033	3.91793899	1.186836569	14.3426
5.00033	4.041499386	1.283978615	14.6651
5.10034	4.174653884	1.378292498	14.8175
5.20033	4.317030003	1.468808186	15.1519
5.30033	4.468245547	1.554648954	15.2571
5.40033	4.627775003	1.634947854	15.4951
5.50033	4.795023574	1.708902564	15.5931
5.60034	4.969337091	1.775780464	15.7362
5.70033	5.149919943	1.834894466	15.8621
5.80033	5.336020067	1.885672787	15.8251
5.90033	5.526759423	1.92760176	15.8834
6.00033	5.721231373	1.960262441	15.9351
6.10034	5.918511818	1.983330317	15.9672
6.20033	6.117569461	1.996569462	15.8777
6.30033	6.317473853	1.999853033	15.8464
6.40033	6.51720695	1.993146403	15.7852
6.50033	6.71577225	1.976516583	15.6452
6.60034	6.912204425	1.950126613	15.4904
6.70033	7.105481645	1.914249498	15.3591
6.80033	7.294730225	1.869234386	15.1388
6.90033	7.479038922	1.815534171	14.8155
7.00033	7.657565351	1.753685408	14.3896
7.10034	7.829541744	1.684298777	14.3393
7.20033	7.994198577	1.608089371	14.0862
7.30033	8.15094018	1.525796845	13.7133
7.40033	8.299182767	1.43825073	13.3876
7.50033	8.438444315	1.346325759	13.0199
7.60034	8.568345044	1.250930735	12.595
7.70033	8.688548793	1.153047758	12.1675
7.80033	8.798891096	1.053625898	11.7779
7.90033	8.899256107	0.953668226	11.2902
8.00033	8.989640178	0.854173486	10.7764
8.10034	9.07014695	0.756126098	10.2236
8.20033	9.140948584	0.660534716	9.69213
8.30033	9.20235943	0.568325462	9.18858
8.40033	9.254757496	0.480429357	8.61204
8.50033	9.298618405	0.397724629	7.97849
8.60034	9.334506291	0.321030297	7.3178
8.70033	9.363052141	0.251134615	6.66527
8.80033	9.3849795	0.188714007	5.97601
8.90033	9.401065236	0.134399501	5.13031
9.00033	9.41214779	0.088733789	4.36998
9.10034	9.419116119	0.052169959	3.62173
9.20033	9.422898204	0.025082878	2.78214
9.30033	9.424456982	0.007733659	2.14767
9.40033	9.424775525	0.000298837	1.58355
9.50033	9.424849817	0.002852698	1.25149
9.60034	9.425678435	0.015371472	1.25014
9.70033	9.428251808	0.037724854	1.62271
9.80033	9.43354385	0.069694717	2.59783
9.90033	9.442500698	0.110959883	4.03439
10.0003	9.456027192	0.161091715	5.88993
10.1003	9.474995209	0.219619376	7.791
10.2003	9.500211064	0.285944343	9.37036
10.3003	9.532421977	0.359403917	10.6908
10.4003	9.572305273	0.439264116	11.6899
10.5003	9.620461619	0.524727002	12.5954
10.6003	9.677409018	0.614938659	13.3274
10.7003	9.74357764	0.708997722	13.8469
10.8003	9.819305515	0.805964383	14.4644
10.9003	9.904835163	0.904869784	14.8067
11.0003	10.00031117	1.004725695	15.2678
11.1003	10.10577873	1.104534388	15.552
11.2003	10.22118322	1.203298608	15.8708
11.3003	10.34637072	1.300031536	16.0633
11.4003	10.48108956	1.393766647	16.374
11.5003	10.62499286	1.483567373	16.5225
11.6003	10.77764193	1.568536453	16.5216
11.7003	10.93851073	1.647824905	16.7972
11.8003	11.10699108	1.720640504	16.7772
11.9003	11.28239874	1.786255702	16.8999
12.0003	11.46398026	1.844014893	16.8332
12.1003	11.65092052	1.893340966	16.9179
12.2003	11.84235082	1.933741071	16.8563
12.3003	12.03735764	1.964811544	16.8639
12.4003	12.23499169	1.986241939	16.8186
12.5003	12.43427745	1.997818131	16.6771
12.6003	12.63422288	1.999424454	16.6233
12.7003	12.83382936	1.991044858	16.3882
12.8003	13.03210166	1.972763069	16.4368
12.9003	13.22805788	1.944761753	16.2057
13.0003	13.42073925	1.907320691	15.7828
13.1003	13.60921973	1.860813979	15.6657
13.2003	13.79261525	1.805706299	15.3961
13.3003	13.97009256	1.742548268	15.184
13.4003	14.14087751	1.671970941	14.8602
13.5003	14.30426287	1.594679501	14.47
13.6003	14.45961529	1.511446221	14.1233
13.7003	14.60638171	1.423102739	13.7331
13.8003	14.74409487	1.330531754	13.2557
13.9003	14.87237794	1.234658206	12.8889
14.0003	14.99094833	1.13644003	12.4512
14.1003	15.09962049	1.03685859	12.0573
14.2003	15.19830777	0.936908872	11.5307
14.3003	15.28702329	0.837589539	11.0437
14.4003	15.36587979	0.739892958	10.4553
14.5003	15.43508854	0.644795281	9.89524
14.6003	15.49495719	0.553246691	9.35129
14.7003	15.54588672	0.466161913	8.66989
14.8003	15.58836743	0.384411069	8.09467
14.9003	15.62297403	0.308810986	7.40648
15.0003	15.6503599	0.240117035	6.70157
15.1003	15.6712506	0.179015583	5.90118
15.2003	15.68643655	0.126117137	5.18267
15.3003	15.69676518	0.081950239	4.37051
15.4003	15.70313246	0.04695619	3.57108
15.5003	15.70647394	0.021484641	2.78093
15.6003	15.70775539	0.005790093	2.10708
15.7003	15.70796319	2.93627E-05	1.5797
15.8003	15.70809442	0.004260008	1.3079
15.9003	15.70914694	0.018439758	1.35403
16.0003	15.7121094	0.042426934	1.83655
16.1003	15.71795136	0.075981863	2.88156
16.2003	15.72761362	0.118769276	4.43033
16.3003	15.74199881	0.170361655	6.36994
16.4003	15.76196236	0.230243506	8.17687
16.5003	15.78830397	0.29781651	9.85724
16.6003	15.82175961	0.372405499	11.0738
16.7003	15.86299416	0.453265204	12.1554
16.8003	15.9125948	0.539587703	13.0531
16.9003	15.9710651	0.63051049	13.7666
17.0003	16.03882	0.725125094	14.4377
17.1003	16.1161817	0.822486156	14.9848
17.2003	16.20337638	0.921620879	15.4341
17.3003	16.30053199	1.02153874	15.8365
17.4003	16.40767695	1.121241392	16.2307
17.5003	16.52473987	1.219732641	16.4688
17.6003	16.65155027	1.316028394	16.6961
17.7003	16.78784026	1.409166496	16.7912
17.8003	16.93324725	1.498216341	17.0664
17.9003	17.08731754	1.582288173	17.1884
18.0003	17.24951088	1.660541975	17.0961
18.1003	17.41920586	1.732195859	17.4245
18.2003	17.59570611	1.796533884	17.3247
18.3003	17.77824726	1.852913206	17.315
18.4003	17.96600459	1.900770502	17.3086
18.5003	18.15810125	1.939627596	17.3024
18.6003	18.35361706	1.969096241	17.2464
18.7003	18.55159763	1.988881998	17.129
18.8003	18.75106399	1.998787172	17.002
18.9003	18.9510223	1.998712795	16.7854
19.0003	19.15047381	1.988659611	16.692
19.1003	19.34842484	1.968728066	16.6273
19.2003	19.54389668	1.93911731	16.2491
19.3003	19.73593542	1.900123205	16.1359
19.4003	19.92362143	1.852135366	15.758
19.5003	20.10607859	1.795633272	15.6299
19.6003	20.28248301	1.731181474	15.291
19.7003	20.45207128	1.659423952	14.9046
19.8003	20.6141481	1.581077684	14.6001
19.9003	20.76809322	1.496925479	14.189
20.0003	20.91336763	1.40780816	13.8918
20.1003	21.04951898	1.314616156	13.3058
20.2003	21.17618605	1.218280612	12.9539
20.3003	21.29310238	1.11976408	12.5213
20.4003	21.40009896	1.020050905	12.0753
20.5003	21.49710588	0.920137387	11.4505
20.6003	21.58415305	0.821021831	10.9722
20.7003	21.66136988	0.723694565	10.409
20.8003	21.72898401	0.629128052	9.83607
20.9003	21.78731905	0.538267169	9.25765
21.0003	21.83679128	0.452019768	8.61348
21.1003	21.87790557	0.371247604	7.98246
21.2003	21.91125028	0.296757726	7.25438
21.3003	21.93749141	0.229294412	6.59005
21.4003	21.95736594	0.169531734	5.85276
21.5003	21.97167444	0.11806682	5.05695
21.6003	21.98127313	0.075413892	4.24762
21.7003	21.98706526	0.041999121	3.37992
21.8003	21.98999213	0.018156379	2.67464
21.9003	21.99102366	0.004123894	2.01086
22.0003	21.9911487	4.1874E-05	1.53625
22.1003	21.99136519	0.005951105	1.2797
22.2003	21.99267011	0.021792544	1.38956
22.3003	21.9960496	0.047407908	1.95575
22.4003	22.00246906	0.082541257	3.13797
22.5003	22.01286352	0.126841552	4.71771
22.6003	22.02812828	0.179866156	6.68708
22.7003	22.04910999	0.241085267	8.46726
22.8003	22.07659818	0.309887203	10.0215
22.9003	22.11131735	0.385584518	11.3248
23.0003	22.15391978	0.46742087	12.3524
23.1003	22.20497897	0.554578576	13.1679
23.2003	22.2649839	0.646186786	13.9756
23.3003	22.3343342	0.74133018	14.5483
23.4003	22.41333611	0.839058118	15.1535
23.5003	22.50219945	0.938394133	15.6041
23.6003	22.60103547	1.038345695	16.0229
23.7003	22.70985581	1.137914118	16.407
23.8003	22.82857234	1.23610455	16.6516
23.9003	22.95699806	1.331935903	16.8855
24.0003	23.09484893	1.424450662	17.154
24.1003	23.24174678	1.51272445	17.2952
24.2003	23.397223	1.595875265	17.4233
24.3003	23.5607233	1.673072292	17.5587
24.4003	23.73161321	1.743544202	17.6039
24.5003	23.90918442	1.806586865	17.7266
24.6003	24.09266186	1.861570378	17.6919
24.7003	24.28121145	1.907945365	17.7357
24.8003	24.47394843	1.945248462	17.6674
24.9003	24.66994622	1.973106949	17.5733
25.0003	24.86824562	1.991242473	17.5624
25.1003	25.06786446	1.999473829	17.4126
25.2003	25.26780739	1.997718774	17.2409
25.3003	25.46707581	1.985994842	17.1285
25.4003	25.66467786	1.964419176	16.9146
25.5003	25.85963833	1.933207353	16.6326
25.6003	26.05100842	1.892671229	16.408
25.7003	26.23787517	1.84321583	16.1942
25.8003	26.41937065	1.785335298	15.9311
25.9003	26.59468058	1.719607954	15.5505
26.0003	26.76305249	1.646690526	15.1962
26.1003	26.92380323	1.567311579	14.7772
26.2003	27.0763258	1.482264243	14.3507
26.3003	27.22009541	1.392398282	13.9578
26.4003	27.35467472	1.298611607	13.5298
26.5003	27.47971824	1.201841304	13.1136
26.6003	27.59497573	1.103054269	12.5724
26.7003	27.70029476	1.00323755	12.0823
26.8003	27.79562217	0.903388482	11.5229
26.9003	27.88100464	0.804504725	10.9719
27.0003	27.95658824	0.707574292	10.4306
27.1003	28.02261693	0.613565679	9.8366
27.2003	28.07943013	0.523418191	9.1689
27.3003	28.12745935	0.438032551	8.58143
27.4003	28.16722387	0.358261904	7.89363
27.5003	28.19932553	0.284903291	7.19864
27.6003	28.22444277	0.218689689	6.53124
27.7003	28.24332378	0.160282681	5.67146
27.8003	28.25677907	0.110265851	4.93468
27.9003	28.26567338	0.06913895	4.12051
28.0003	28.27091699	0.037312905	3.28194
28.1003	28.27345669	0.015105712	2.53493
28.2003	28.27426627	0.002739256	1.91835
28.3003	28.2743368	0.000337101	1.46878
28.4003	28.27466675	0.007923246	1.30186
28.5003	28.27625198	0.025421895	1.48023
28.6003	28.28007582	0.052658206	2.12775
28.7003	28.28709924	0.089360043	3.37814
28.8003	28.29825122	0.135160693	5.03854