Time (s)	γ (-)	γ_dot (1/s)	σ (Pa)
0.100502	1.004174481	9.974769618	26.0065
0.2005	1.998296696	9.899835603	26.8824
0.300499	2.982479414	9.775944528	26.6984
0.400501	3.951903725	9.604328899	25.9727
0.500499	4.901811963	9.386716096	25.6506
0.600502	5.827793604	9.125260302	25.2241
0.7005	6.725500139	8.822599914	25.0949
0.800499	7.591013291	8.48174331	24.4769
0.900501	8.42069619	8.106087217	23.6979
1.0005	9.211205154	7.699407514	23.2666
1.1005	9.959670234	7.265752305	22.7934
1.2005	10.66360074	6.809458448	22.055
1.3005	11.32095907	6.335085081	21.0314
1.4005	11.93017295	5.847371984	20.3052
1.5005	12.49015115	5.351192227	19.2638
1.6005	13.00029439	4.851503473	18.5701
1.7005	13.46050132	4.353298447	17.6329
1.8005	13.87116954	3.86155505	16.2641
1.9005	14.23319162	3.381186618	15.4755
2.0005	14.5479462	2.916992834	14.1541
2.1005	14.81728418	2.473611769	13.3197
2.2005	15.04351026	2.055473541	12.1686
2.3005	15.2293599	1.666756047	11.066
2.4005	15.377972	1.311343225	9.79835
2.5005	15.49285749	0.992786243	8.5861
2.6005	15.57786432	0.714268015	7.34177
2.7005	15.63713895	0.478571405	6.09288
2.8005	15.67508499	0.288051415	4.79052
2.9005	15.6963191	0.144611658	3.53453
3.0005	15.70562497	0.049685336	2.41155
3.1005	15.70790545	0.004220921	1.49684
3.2005	15.70813358	0.00867268	1.07117
3.3005	15.71130293	0.062996132	1.34586
3.4005	15.72237765	0.166648494	2.70231
3.5005	15.74624294	0.318594107	5.19414
3.6005	15.78765616	0.51731478	8.14724
3.7005	15.85119938	0.760824962	10.7665
3.8005	15.94123351	1.046691579	12.9297
3.9005	16.0618548	1.372058348	14.7301
4.0005	16.21685389	1.73367431	16.3654
4.1005	16.4096779	2.127926319	17.8328
4.2005	16.64339603	2.550875139	19.1562
4.3005	16.92066889	2.998294805	20.3431
4.4005	17.24372189	3.465714847	21.4253
4.5005	17.61432303	3.94846496	22.2284
4.6005	18.03376522	4.441721663	23.0605
4.7005	18.50285337	4.940556498	23.8554
4.8005	19.02189633	5.439985274	24.5246
4.9005	19.59070383	5.935017862	25.5418
5.0005	20.20858838	6.420708061	26.251
5.1005	20.87437211	6.892203014	26.9188
5.2005	21.58639857	7.3447917	27.4918
5.3005	22.34254924	7.773952003	28.0159
5.4005	23.14026478	8.175395894	28.4993
5.5005	23.97657049	8.545112279	28.9406
5.6005	24.84810612	8.879407074	29.2337
5.7005	25.75115941	9.174940116	29.5402
5.8005	26.68170319	9.428758537	29.8108
5.9005	27.63543561	9.638326266	29.964
6.0005	28.60782311	9.801549372	30.0593
6.1005	29.59414576	9.916796984	30.0606
6.2005	30.58954439	9.982917586	30.0388
6.3005	31.58906914	9.999250522	29.9207
6.4005	32.58772891	9.9656326	29.7527
6.5005	33.58054127	9.882399718	29.477
6.6005	34.5625822	9.750383513	29.2037
6.7005	35.52903531	9.570903045	28.8126
6.8005	36.47523994	9.345751625	28.3423
6.9005	37.39673777	9.077178891	27.7646
7.0005	38.28931734	8.767868334	26.5615
7.1005	39.14905611	8.420910482	26.5802
7.2005	39.9723597	8.039772023	25.8007
7.3005	40.75599777	7.628261167	25.0377
7.4005	41.49713629	7.190489594	24.116
7.5005	42.19336589	6.730831373	23.3626
7.6005	42.8427259	6.253879257	22.2907
7.7005	43.44372399	5.764398794	21.3516
7.8005	43.99535099	5.267280711	20.3663
7.9005	44.49709108	4.767492047	19.2419
8.0005	44.94892686	4.270026526	18.1724
8.1005	45.35133959	3.779854659	17.1107
8.2005	45.70530431	3.301874081	15.9179
8.3005	46.01228016	2.840860615	14.7266
8.4005	46.27419578	2.401420557	13.5907
8.5005	46.49343003	1.987944645	12.4176
8.6005	46.67278823	1.604564195	11.382
8.7005	46.81547412	1.255109817	10.063
8.8005	46.92505787	0.943073144	8.59215
8.9005	47.00544038	0.671571943	7.28548
9.0005	47.06081434	0.443318964	5.92612
9.1005	47.09562231	0.260594836	4.65079
9.2005	47.11451232	0.125225277	3.38076
9.3005	47.12229148	0.038562857	2.14596
9.4005	47.12387788	0.001473476	1.31883
9.5005	47.12425151	0.01432772	0.968775
9.6005	47.12840448	0.076997153	1.47152
9.7005	47.14129113	0.188855604	2.94119
9.8005	47.16777852	0.348785419	5.52193
9.9005	47.21259784	0.555188632	8.45951
10.0005	47.28029711	0.806002932	11.133
10.1005	47.37519573	1.098722264	13.1164
10.2005	47.50134134	1.430421873	14.8992
10.3005	47.66246937	1.797787527	16.5534
10.4005	47.86196571	2.19714863	17.9529
10.5005	48.10283291	2.624514897	19.1299
10.6005	48.38766012	3.075616225	20.1591
10.7005	48.71859729	3.545945361	21.1789
10.8005	49.09733364	4.03080293	22.1716
10.9005	49.52508078	4.525344395	22.9602
11.0005	50.00256066	5.024628463	24.0275
11.1005	50.52999827	5.523666451	24.8543
11.2005	51.10711948	6.017472136	25.6371
11.3005	51.73315371	6.501111577	26.3581
11.4005	52.40684167	6.969752407	27.0128
11.5005	53.12644794	7.418712122	27.4475
11.6005	53.88977826	7.843504865	27.998
11.7005	54.69420155	8.239886247	28.4428
11.8005	55.53667609	8.603895757	28.697
11.9005	56.41378	8.931896332	29.3684
12.0005	57.32174538	9.220610698	29.2945
12.1005	58.25649597	9.467154118	29.6887
12.2005	59.2136879	9.66906321	29.6834
12.3005	60.18875304	9.824320566	30.0983
12.4005	61.17694471	9.931374905	29.7089
12.5005	62.17338505	9.989156577	29.7998
12.6005	63.1731138	9.997088245	29.8006
12.7005	64.17113784	9.95509066	29.4958
12.8005	65.16248106	9.863583446	29.4312
12.9005	66.14223414	9.723480914	28.9417
13.0005	67.10560354	9.536182923	28.6989
13.1005	68.04795942	9.303560891	28.3089
13.2005	68.96488191	9.027939101	27.6504
13.3005	69.85220527	8.712071475	27.3148
13.4005	70.70605947	8.359114058	26.5083
13.5005	71.52290893	7.972593484	25.7866
13.6005	72.2995878	7.556371738	25.0337
13.7005	73.03333158	7.114607571	24.1593
13.8005	73.72180479	6.651714944	22.7975
13.9005	74.36312427	6.172318927	22.1176
14.0005	74.955878	5.681209487	21.2351
14.1005	75.49913922	5.183293627	20.1509
14.2005	75.99247566	4.683546358	19.0332
14.3005	76.43595392	4.186960989	18.0092
14.4005	76.83013874	3.698499237	16.8662
14.5005	77.17608738	3.22304165	15.7015
14.6005	77.47533909	2.765338844	14.5542
14.7005	77.72989967	2.329964034	13.3207
14.8005	77.94222146	1.92126734	12.1489
14.9005	78.11517887	1.543332325	10.9152
15.0005	78.25203957	1.199935191	9.66817
15.1005	78.35643196	0.894507048	8.36308
15.2005	78.4323088	0.630099634	7.05312
15.3005	78.48390779	0.40935482	5.69576
15.4005	78.51570921	0.234478215	4.40371
15.5005	78.53239115	0.107217129	3.0834
15.6005	78.53878275	0.028843111	1.95231
15.7005	78.53981599	0.00013925	1.24055
15.8005	78.54047639	0.021392345	0.949462
15.9005	78.54575317	0.092390042	1.55453
16.0005	78.56058945	0.212422955	3.25624
16.1005	78.58983282	0.380291756	6.05129
16.2005	78.63818693	0.594319154	8.95604
16.3005	78.71016448	0.852366659	11.4652
16.4005	78.81004212	1.151855945	13.5449
16.5005	78.94181774	1.489794615	15.3519
16.6005	79.10917052	1.862806096	16.8926
16.7005	79.31542417	2.267163382	18.3045
16.8005	79.56351369	2.698826268	19.515
16.9005	79.8559561	3.153481722	20.6113
17.0005	80.19482523	3.626586975	21.7599
17.1005	80.58173107	4.113414918	22.8036
17.2005	81.0178036	4.609101326	23.7825
17.3005	81.50368157	5.108693464	24.494
17.4005	82.03950608	5.607199572	25.2627
17.5005	82.62491918	6.099638744	25.9605
17.6005	83.25906746	6.581090688	26.5025
17.7005	83.94061055	7.046744897	27.3408
17.8005	84.66773454	7.491948708	27.5959
17.9005	85.43817006	7.912253791	27.8123
18.0005	86.24921503	8.303460597	28.3938
18.1005	87.09776158	8.661660316	29.1605
18.2005	87.98032715	8.983273936	28.8265
18.3005	88.89308927	9.265087999	29.4798
18.4005	89.83192376	9.504286713	29.7376
18.5005	90.79244593	9.698480083	29.9312
18.6005	91.7700544	9.845727793	30.0808
18.7005	92.75997706	9.944558593	29.7388
18.8005	93.75731876	9.993984998	29.4997
18.9005	94.75711023	9.993513155	29.2943
19.0005	95.75435772	9.94314778	29.6893
19.1005	96.74409289	9.843392106	28.9872
19.2005	97.72142248	9.695242859	28.4118
19.3005	98.68157716	9.500180298	28.343
19.4005	99.61995923	9.260153422	27.9757
19.5005	100.5321885	8.977560502	27.3442
19.6005	101.4141461	8.655225112	26.5592
19.7005	102.2620157	8.296367921	25.8489
19.8005	103.0723215	7.904574511	25.1812
19.9005	103.8419629	7.483759553	24.6133
20.0005	104.5682459	7.038127691	23.4273
20.1005	105.2489094	6.57213153	22.6337
20.2005	105.8821484	6.090427151	21.5363
20.3005	106.4666316	5.597827584	20.8113
20.4005	107.0015148	5.099254722	19.6616
20.5005	107.4864494	4.599690139	18.5338
20.6005	107.9215862	4.10412532	17.6361
20.7005	108.307573	3.617511785	16.3594
20.8005	108.6455491	3.144711614	15.2811
20.9005	108.9371334	2.690448873	14.0476
21.0005	109.1844083	2.259262402	12.9138
21.1005	109.389899	1.855460476	11.7336
21.2005	109.5565481	1.483077749	10.426
21.3005	109.6876863	1.145834947	9.28473
21.4005	109.7869992	0.847101688	7.91812
21.5005	109.8584902	0.589862816	6.7295
21.6005	109.906441	0.376688577	5.35264
21.7005	109.9353683	0.209708938	4.05177
21.8005	109.9499788	0.090592303	2.80146
21.9005	109.9551224	0.020528847	1.77487
22.0005	109.9557436	0.000218621	1.10296
22.1005	109.9568319	0.029864558	1.00087
22.2005	109.9633724	0.109170445	1.71252
22.3005	109.9802954	0.237343885	3.61969
22.4005	110.0124279	0.41310421	6.46205
22.5005	110.0644445	0.634695282	9.27878
22.6005	110.1408213	0.899903035	11.733
22.7005	110.2457911	1.206077602	13.7144
22.8005	110.3833008	1.550159787	15.5353
22.9005	110.5569724	1.928711636	17.0105
23.0005	110.7700664	2.337950782	18.4828
23.1005	111.0254495	2.773788245	19.6251
23.2005	111.3255658	3.231869279	20.8156
23.3005	111.6724124	3.707616891	21.9235
23.4005	112.0675197	4.196277568	22.8651
23.5005	112.5119357	4.692968774	23.8834
23.6005	113.0062158	5.192727734	24.7309
23.7005	113.5504171	5.690561022	25.6367
23.8005	114.1440979	6.181494453	26.37
23.9005	114.7863223	6.660622782	27.0331
24.0005	115.4756692	7.123158717	27.632
24.1005	116.2102467	7.564480752	28.1743
24.2005	116.987711	7.980179343	28.6499
24.3005	117.8052897	8.366100967	29.1829
24.4005	118.6598097	8.718389623	29.5069
24.5005	119.5477287	9.033525359	29.8572
24.6005	120.4651709	9.308359443	30.1305
24.7005	121.4079652	9.540145824	30.3068
24.8005	122.3716874	9.726568568	30.5018
24.9005	123.3517042	9.865765001	30.4749
25.0005	124.3432193	9.956344319	30.4921
25.1005	125.3413218	9.997401483	30.3532
25.2005	126.3410347	9.988526263	30.233
25.3005	127.337365	9.929807338	29.942
25.4005	128.3253537	9.821831407	29.6781
25.5005	129.3001248	9.665677331	29.2273
25.6005	130.2569347	9.462905349	28.8362
25.7005	131.191219	9.215541493	27.976
25.8005	132.0986385	8.926057339	27.4586
25.9005	132.9751224	8.597345318	26.7553
26.0005	133.8169091	8.232689811	25.9022
26.1005	134.6205834	7.835734337	25.3781
26.2005	135.3831112	7.410445142	24.3141
26.3005	136.1018693	6.961071577	23.4759
26.4005	136.7746721	6.492103632	22.5224
26.5005	137.3997929	6.008227082	21.6974
26.6005	137.9759816	5.514276659	20.5168
26.7005	138.5024769	5.015187754	19.5096
26.8005	138.9790141	4.515947098	18.291
26.9005	139.4058276	4.021542939	17.2437
27.0005	139.7836487	3.536915199	16.2725
27.1005	140.1136981	3.066906119	14.9741
27.2005	140.397674	2.616211874	13.8732
27.3005	140.6377347	2.189335652	12.6962
27.4005	140.8364775	1.790542659	11.4773
27.5005	140.9969125	1.423817503	10.2589
27.6005	141.1224325	1.09282438	8.90557
27.7005	141.2167791	0.800870465	7.72359
27.8005	141.2840056	0.550872863	6.41574
27.9005	141.328436	0.34532947	5.07201
28.0005	141.3546223	0.186294006	3.84666
28.1005	141.3672986	0.0753555	2.61435
28.2005	141.3713341	0.013622415	1.69879
28.3005	141.3716843	0.001711567	1.04234
28.4005	141.3733417	0.039741964	1.07442
28.5005	141.3812853	0.12733362	1.98431
28.6005	141.4004318	0.263611347	4.03728
28.7005	141.4355856	0.447213505	6.88487
28.8005	141.4913913	0.6763056	9.58018
28.9005	141.5722872	0.94859862	11.9384
29.0005	141.6824608	1.261371904	13.8496
29.1005	141.8258072	1.611500324	15.5228
29.2005	142.0058898	1.995485512	17.011
29.3005	142.2259053	2.409490816	18.3931
29.4005	142.4886511	2.849379632	19.5721
29.5005	142.7964977	3.310756735	20.5656
29.6005	143.1513652	3.789012199	21.7996
29.7005	143.5547036	4.279367452	22.5149
29.8005	144.0074788	4.776923028	23.5826
29.9005	144.5101626	5.276707515	24.3588
30.0005	145.0627281	5.773727232	25.257
30.1005	145.6646502	6.263016122	25.9095
30.2005	146.3149106	6.739685373	26.4739
30.3005	147.0120077	7.198972263	27.2605
30.4005	147.7539724	7.636287748	27.6769
30.5005	148.5383869	8.047262318	28.4967
30.6005	149.3624096	8.42778965	29.0109
30.7005	150.2228028	8.774067641	29.3443
30.8005	151.1159657	9.082636395	29.778
30.9005	152.0379699	9.350412797	29.9406
31.0005	152.9845989	9.574721311	30.2505
31.1005	153.95139	9.753320723	30.3835
31.2005	154.9336794	9.884426525	30.3744
31.3005	155.926648	9.966728752	30.474
31.4005	156.9253704	9.999405067	30.3456
31.5005	157.9248634	9.982128979	30.2594
31.6005	158.9201363	9.915073105	29.9424
31.7005	159.9062405	9.798907446	29.6618
31.8005	160.8783189	9.634792689	29.2582
31.9005	161.8316549	9.424368616	28.7878
32.0005	162.7617186	9.169737714	28.2236
32.1005	163.6642132	8.873444172	27.6554
32.2005	164.535117	8.538448456	26.9311
32.3005	165.370724	8.168097732	26.2501
32.4005	166.167681	7.766092423	25.3739
32.5005	166.9230209	7.336449233	24.5689
32.6005	167.6341924	6.883461014	23.7169
32.7005	168.2990856	6.411653876	22.7257
32.8005	168.9160529	5.925741959	21.7376
32.9005	169.4839256	5.430580334	20.6974
33.0005	170.0020255	4.931116493	19.6127
33.1005	170.4701718	4.432340913	18.5897
33.2005	170.8886828	3.939237195	17.4087
33.3005	171.2583727	3.456732268	16.2654
33.4005	171.5805434	2.989647162	15.0962
33.5005	171.8569719	2.542648837	13.8854
33.6005	172.0898919	2.120203553	12.6379
33.7005	172.281972	1.726532243	11.3918
33.8005	172.4362889	1.365568341	10.165
33.9005	172.5562966	1.040918478	8.85548
34.0005	172.6457917	0.75582645	7.51161
34.1005	172.7088759	0.5131408	6.22827
34.2005	172.7499147	0.315286365	4.96049
34.3005	172.7734939	0.164240039	3.57233
34.4005	172.7843738	0.061511029	2.45492
34.5005	172.7874415	0.008125768	1.51063
34.6005	172.7876621	0.004617664	1.01448
34.7005	172.7900293	0.05102177	1.16973
34.8005	172.7995153	0.146874429	2.18078
34.9005	172.8210211	0.291217916	4.43621
35.0005	172.8593277	0.482609996	7.29736
35.1005	172.9190481	0.719138344	9.98761
35.2005	173.0045816	0.998439647	12.2299
35.3005	173.1200693	1.317723218	14.1626
35.4005	173.2693531	1.673798881	15.7644
35.5005	173.4559372	2.063108846	17.2003
35.6005	173.6829533	2.481763257	18.5918
35.7005	173.9531289	2.925579058	19.7505
35.8005	174.2687602	3.390121786	20.9019
35.9005	174.6316896	3.870749886	21.6385
36.0005	175.0432864	4.362661079	22.7879
36.1005	175.5044341	4.860940352	23.5612
36.2005	176.0155208	5.360609063	24.3763
36.3005	176.5764358	5.856674688	25.2723
36.4005	177.1865704	6.344180702	25.7816
36.5005	177.8448241	6.818256107	26.6955
36.6005	178.5496158	7.274164098	27.2687
36.7005	179.2988993	7.707349393	27.9611
36.8005	180.0901837	8.113483748	27.8937
36.9005	180.9205587	8.488509203	28.6294
37.0005	181.7867233	8.828678627	28.9955
37.1005	182.6850188	9.130593159	29.3634
37.2005	183.6114657	9.39123617	29.552
37.3005	184.561803	9.608003401	29.7923
37.4005	185.5315312	9.778728985	29.9424
37.5005	186.5159567	9.901707088	29.7647
37.6005	187.5102395	9.975708955	30.1592
37.7005	188.5094408	9.999995183	29.5793
37.8005	189.5085727	9.974323111	29.5607
37.9005	190.5026481	9.898949247	29.0052
38.0005	191.4867304	9.774626702	29.1021
38.1005	192.4559827	9.602597665	28.5366
38.2005	193.4057165	9.384580993	27.9652
38.3005	194.3314381	9.122755038	27.7035
38.4005	195.2288939	8.819735877	26.8526
38.5005	196.0941127	8.478551178	26.4206
38.6005	196.9234452	8.102609945	25.5309
38.7005	197.713601	7.695668459	24.66
38.8005	198.4616808	7.261792746	23.891
38.9005	199.165206	6.805317946	22.9417
39.0005	199.8221429	6.330805007	22.3398
39.1005	200.4309236	5.842995104	21.3259
39.2005	200.9904611	5.346762272	20.315
39.3005	201.5001605	4.847064706	19.343
39.4005	201.959925	4.34889522	18.1454
39.5005	202.3701565	3.857231357	17.3399
39.6005	202.731752	3.37698566	15.9492
39.7005	203.0460944	2.912956586	14.6993
39.8005	203.3150386	2.469780561	13.5802
39.9005	203.5408935	2.051885651	12.3554
40.0005	203.726398	1.663447326	11.1486
40.1005	203.8746946	1.308346732	9.89269
40.2005	203.9892973	0.990131917	8.53794
40.3005	204.0740569	0.711982378	7.32636
40.4005	204.1331224	0.476677294	5.98837
40.5005	204.1708994	0.286567756	4.70679
40.6005	204.1920063	0.143553274	3.37418
40.7005	204.201228	0.049062803	2.21377
40.8005	204.2034683	0.00404046	1.37824
40.9005	204.2037006	0.008936092	0.950475
41.0005	204.2069184	0.063700786	1.26232
41.1005	204.2180854	0.16778735	2.43039
41.2005	204.2420858	0.320155785	4.86914
41.3005	204.2836757	0.519283677	7.77609
41.4005	204.3474354	0.763181404	10.4078
41.5005	204.4377236	1.049412023	12.604
41.6005	204.558634	1.375115611	14.515
41.7005	204.7139544	1.737037846	16.1677
41.8005	204.9071287	2.13156252	17.7002
41.9005	205.1412225	2.554747673	18.9581
42.0005	205.4188929	3.002364979	20.1945
42.1005	205.7423611	3.469941994	21.2515
42.2005	206.113391	3.952806842	22.3055
42.3005	206.5332713	4.446134899	23.2585
42.4005	207.0028025	4.944996992	24.1525
42.5005	207.5222891	5.444408657	25.0654
42.6005	208.0915362	5.939379938	25.7508
42.7005	208.7098521	6.424965246	26.5252
42.8005	209.3760545	6.896312771	27.1974
42.9005	210.0884828	7.348712966	27.7929
43.0005	210.8450146	7.777645597	28.3202
43.1005	211.6430866	8.178824912	28.8292
43.2005	212.4797205	8.548242459	29.2401
43.3005	213.3515529	8.882207141	29.3888
43.4005	214.2548685	9.177382092	29.6311
43.5005	215.1856375	9.430818021	29.7748
43.6005	216.1395559	9.639982682	30.0662
43.7005	217.1120882	9.80278617	30.2029
43.8005	218.098513	9.917601806	29.8268
43.9005	219.0939702	9.98328239	29.9776
44.0005	220.0935092	9.999171664	29.5311
44.1005	221.0921389	9.965110867	29.5467
44.2005	222.0848772	9.881440323	29.168
44.3005	223.0668007	9.748996041	28.7563
44.4005	224.0330942	9.569101361	28.5176
44.5005	224.9790987	9.34355373	27.7923
44.6005	225.9003578	9.074606746	27.6779
44.7005	226.7926625	8.764947639	26.5897
44.8005	227.652093	8.417670419	25.9133
44.9005	228.4750579	8.036244966	25.4529
45.0005	229.2583304	7.624482357	24.6854
45.1005	229.99908	7.186496788	24.0031
45.2005	230.6949013	6.726664466	22.6531
45.3005	231.3438376	6.249579883	21.9278
45.4005	231.9444009	5.760009911	20.8115
45.5005	232.4955864	5.262846171	19.9867
45.6005	232.9968826	4.763056159	18.8322
45.7005	233.4482766	4.265633612	17.6668
45.8005	233.850254	3.77554861	16.7
45.9005	234.2037943	3.297697923	15.44
46.0005	234.5103607	2.836856075	14.3754
46.1005	234.7718862	2.397627646	13.1574
46.2005	234.9907533	1.984401261	11.9477
46.3005	235.1697711	1.601305743	10.7693
46.4005	235.3121468	1.252168853	9.53781
46.5005	235.4214535	0.940479054	8.28923
46.6005	235.5015951	0.669350646	6.92849
46.7005	235.5567665	0.441492655	5.69278
46.8005	235.5914123	0.259181763	4.39244
46.9005	235.6101823	0.124239559	3.16276
47.0005	235.6178847	0.038014342	1.97973
47.1005	235.6194384	0.001367645	1.25628
47.2005	235.6198236	0.01466563	0.97517
47.3005	235.6240324	0.077775429	1.34216
47.4005	235.6370186	0.190066468	2.8282
47.5005	235.6636482	0.350416774	5.29559
47.6005	235.7086511	0.557224178	8.18503
47.7005	235.7765733	0.808422329	10.6499
47.8005	235.871732	1.101501339	12.835
47.9005	235.9981724	1.433532859	14.5728
48.0005	236.1596268	1.801199339	16.2275
48.1005	236.359478	2.200827179	17.6358
48.2005	236.6007248	2.628423428	18.8316
48.3005	236.8859528	3.079715686	20.1354
48.4005	237.2173078	3.55019479	21.2264
48.5005	237.5964748	4.035159869	22.3106
48.6005	238.0246612	4.529765311	23.3448
48.7005	238.5025845	5.029069183	24.3067
48.8005	239.0304653	5.528082605	25.1516
48.9005	239.6080251	6.021819601	26.0522
49.0005	240.2344888	6.505346912	26.6963
49.1005	240.9085929	6.973833295	27.3374
49.2005	241.6285979	7.422597789	27.954
